t psi theta phi
0.000000 0.000000 0.785398 0.000000
0.010005 -0.000001 0.785329 0.200098
0.020010 -0.000010 0.785121 0.400190
0.030015 -0.000035 0.784774 0.600271
0.040020 -0.000084 0.784289 0.800336
0.050025 -0.000163 0.783668 1.000378
0.060030 -0.000282 0.782909 1.200393
0.070035 -0.000446 0.782016 1.400376
0.080040 -0.000665 0.780989 1.600321
0.090045 -0.000945 0.779829 1.800223
0.100050 -0.001292 0.778538 2.000077
0.110055 -0.001715 0.777119 2.199879
0.120060 -0.002220 0.775572 2.399624
0.130065 -0.002814 0.773901 2.599308
0.140070 -0.003502 0.772108 2.798927
0.150075 -0.004291 0.770195 2.998476
0.160080 -0.005187 0.768164 3.197952
0.170085 -0.006195 0.766020 3.397352
0.180090 -0.007320 0.763764 3.596671
0.190095 -0.008569 0.761399 3.795908
0.200100 -0.009945 0.758930 3.995059
0.210105 -0.011453 0.756359 4.194122
0.220110 -0.013098 0.753690 4.393095
0.230115 -0.014883 0.750926 4.591974
0.240120 -0.016812 0.748071 4.790760
0.250125 -0.018888 0.745129 4.989449
0.260130 -0.021115 0.742104 5.188041
0.270135 -0.023496 0.738999 5.386535
0.280140 -0.026033 0.735818 5.584929
0.290145 -0.028728 0.732567 5.783223
0.300150 -0.031583 0.729248 5.981417
0.310155 -0.034601 0.725866 6.179509
0.320160 -0.037783 0.722425 6.377502
0.330165 -0.041129 0.718929 6.575393
0.340170 -0.044642 0.715383 6.773184
0.350175 -0.048322 0.711791 6.970876
0.360180 -0.052169 0.708157 7.168468
0.370185 -0.056184 0.704487 7.365963
0.380190 -0.060367 0.700783 7.563360
0.390195 -0.064718 0.697050 7.760660
0.400200 -0.069237 0.693294 7.957866
0.410205 -0.073923 0.689517 8.154979
0.420210 -0.078775 0.685725 8.351999
0.430215 -0.083793 0.681922 8.548929
0.440220 -0.088976 0.678113 8.745771
0.450225 -0.094322 0.674301 8.942525
0.460230 -0.099831 0.670491 9.139195
0.470235 -0.105500 0.666687 9.335781
0.480240 -0.111328 0.662893 9.532286
0.490245 -0.117314 0.659114 9.728712
0.500250 -0.123455 0.655354 9.925060
0.510255 -0.129750 0.651616 10.121334
0.520260 -0.136195 0.647906 10.317535
0.530265 -0.142790 0.644227 10.513665
0.540270 -0.149532 0.640582 10.709727
0.550275 -0.156417 0.636977 10.905722
0.560280 -0.163444 0.633414 11.101653
0.570285 -0.170610 0.629898 11.297522
0.580290 -0.177912 0.626433 11.493332
0.590295 -0.185347 0.623021 11.689084
0.600300 -0.192913 0.619667 11.884780
0.610305 -0.200606 0.616374 12.080423
0.620310 -0.208422 0.613146 12.276015
0.630315 -0.216360 0.609985 12.471559
0.640320 -0.224415 0.606897 12.667055
0.650325 -0.232585 0.603882 12.862506
0.660330 -0.240866 0.600945 13.057915
0.670335 -0.249254 0.598089 13.253283
0.680340 -0.257746 0.595317 13.448611
0.690345 -0.266338 0.592631 13.643903
0.700350 -0.275027 0.590035 13.839160
0.710355 -0.283809 0.587530 14.034384
0.720360 -0.292680 0.585121 14.229576
0.730365 -0.301637 0.582808 14.424738
0.740370 -0.310675 0.580595 14.619873
0.750375 -0.319792 0.578483 14.814981
0.760380 -0.328982 0.576476 15.010065
0.770385 -0.338241 0.574574 15.205125
0.780390 -0.347567 0.572780 15.400165
0.790395 -0.356955 0.571097 15.595184
0.800400 -0.366400 0.569524 15.790185
0.810405 -0.375899 0.568065 15.985170
0.820410 -0.385447 0.566720 16.180139
0.830415 -0.395041 0.565491 16.375094
0.840420 -0.404676 0.564380 16.570036
0.850425 -0.414348 0.563387 16.764967
0.860430 -0.424053 0.562513 16.959889
0.870435 -0.433786 0.561760 17.154801
0.880440 -0.443544 0.561127 17.349707
0.890445 -0.453321 0.560617 17.544607
0.900450 -0.463114 0.560228 17.739502
0.910455 -0.472919 0.559962 17.934394
0.920460 -0.482731 0.559820 18.129283
0.930465 -0.492546 0.559800 18.324172
0.940470 -0.502359 0.559903 18.519061
0.950475 -0.512166 0.560129 18.713952
0.960480 -0.521964 0.560478 18.908846
0.970485 -0.531747 0.560949 19.103744
0.980490 -0.541511 0.561542 19.298648
0.990495 -0.551253 0.562256 19.493558
1.000500 -0.560967 0.563091 19.688476
1.010505 -0.570650 0.564046 19.883404
1.020510 -0.580298 0.565119 20.078343
1.030515 -0.589905 0.566310 20.273294
1.040520 -0.599469 0.567617 20.468258
1.050525 -0.608984 0.569040 20.663237
1.060530 -0.618447 0.570575 20.858233
1.070535 -0.627854 0.572223 21.053246
1.080540 -0.637200 0.573982 21.248279
1.090545 -0.646482 0.575849 21.443333
1.100550 -0.655695 0.577822 21.638409
1.110555 -0.664835 0.579900 21.833509
1.120560 -0.673899 0.582081 22.028635
1.130565 -0.682883 0.584362 22.223788
1.140570 -0.691782 0.586740 22.418970
1.150575 -0.700593 0.589214 22.614183
1.160580 -0.709313 0.591781 22.809429
1.170585 -0.717937 0.594438 23.004710
1.180590 -0.726462 0.597183 23.200026
1.190595 -0.734884 0.600012 23.395381
1.200600 -0.743199 0.602923 23.590776
1.210605 -0.751405 0.605913 23.786214
1.220610 -0.759498 0.608978 23.981695
1.230615 -0.767474 0.612116 24.177223
1.240620 -0.775331 0.615322 24.372799
1.250625 -0.783064 0.618595 24.568425
1.260630 -0.790671 0.621929 24.764104
1.270635 -0.798148 0.625323 24.959838
1.280640 -0.805494 0.628771 25.155629
1.290645 -0.812704 0.632272 25.351478
1.300650 -0.819776 0.635820 25.547389
1.310655 -0.826708 0.639412 25.743364
1.320660 -0.833496 0.643044 25.939403
1.330665 -0.840139 0.646712 26.135511
1.340670 -0.846633 0.650413 26.331689
1.350675 -0.852977 0.654142 26.527939
1.360680 -0.859168 0.657895 26.724263
1.370685 -0.865204 0.661668 26.920664
1.380690 -0.871083 0.665458 27.117143
1.390695 -0.876804 0.669259 27.313702
1.400700 -0.882365 0.673068 27.510345
1.410705 -0.887764 0.676879 27.707071
1.420710 -0.893000 0.680690 27.903884
1.430715 -0.898071 0.684496 28.100786
1.440720 -0.902977 0.688292 28.297777
1.450725 -0.907717 0.692074 28.494859
1.460730 -0.912290 0.695837 28.692035
1.470735 -0.916695 0.699578 28.889305
1.480740 -0.920933 0.703292 29.086671
1.490745 -0.925002 0.706974 29.284133
1.500750 -0.928904 0.710620 29.481694
1.510755 -0.932637 0.714226 29.679353
1.520760 -0.936204 0.717787 29.877112
1.530765 -0.939605 0.721299 30.074971
1.540770 -0.942839 0.724758 30.272931
1.550775 -0.945910 0.728160 30.470991
1.560780 -0.948818 0.731500 30.669152
1.570785 -0.951565 0.734774 30.867414
1.580790 -0.954152 0.737978 31.065776
1.590795 -0.956583 0.741107 31.264237
1.600800 -0.958860 0.744159 31.462797
1.610805 -0.960985 0.747128 31.661455
1.620810 -0.962961 0.750012 31.860210
1.630815 -0.964792 0.752806 32.059059
1.640820 -0.966482 0.755506 32.258002
1.650825 -0.968034 0.758109 32.457036
1.660830 -0.969452 0.760612 32.656159
1.670835 -0.970741 0.763010 32.855368
1.680840 -0.971906 0.765302 33.054661
1.690845 -0.972952 0.767483 33.254035
1.700850 -0.973883 0.769550 33.453487
1.710855 -0.974706 0.771502 33.653013
1.720860 -0.975426 0.773334 33.852609
1.730865 -0.976049 0.775045 34.052273
1.740870 -0.976582 0.776632 34.251998
1.750875 -0.977031 0.778093 34.451782
1.760880 -0.977402 0.779426 34.651620
1.770885 -0.977703 0.780628 34.851508
1.780890 -0.977941 0.781698 35.051439
1.790895 -0.978122 0.782635 35.251410
1.800900 -0.978255 0.783437 35.451415
1.810905 -0.978346 0.784103 35.651450
1.820910 -0.978404 0.784632 35.851508
1.830915 -0.978435 0.785024 36.051584
1.840920 -0.978449 0.785277 36.251673
1.850925 -0.978452 0.785391 36.451770
1.860930 -0.978452 0.785366 36.651868
1.870935 -0.978458 0.785203 36.851963
1.880940 -0.978477 0.784901 37.052048
1.890945 -0.978517 0.784461 37.252118
1.900950 -0.978585 0.783884 37.452169
1.910955 -0.978690 0.783170 37.652193
1.920960 -0.978839 0.782320 37.852187
1.930965 -0.979040 0.781336 38.052145
1.940970 -0.979299 0.780219 38.252061
1.950975 -0.979624 0.778970 38.451931
1.960980 -0.980022 0.777592 38.651751
1.970985 -0.980499 0.776087 38.851515
1.980990 -0.981064 0.774456 39.051219
1.990995 -0.981720 0.772701 39.250859
2.001001 -0.982476 0.770827 39.450431
2.011006 -0.983337 0.768834 39.649931
2.021011 -0.984308 0.766726 39.849356
2.031016 -0.985395 0.764505 40.048702
2.041021 -0.986603 0.762176 40.247966
2.051026 -0.987937 0.759740 40.447145
2.061031 -0.989402 0.757202 40.646237
2.071036 -0.991002 0.754564 40.845239
2.081041 -0.992741 0.751830 41.044149
2.091046 -0.994623 0.749004 41.242965
2.101051 -0.996652 0.746090 41.441685
2.111056 -0.998830 0.743091 41.640309
2.121061 -1.001160 0.740012 41.838834
2.131066 -1.003646 0.736855 42.037261
2.141071 -1.006290 0.733626 42.235587
2.151076 -1.009093 0.730329 42.433814
2.161081 -1.012059 0.726966 42.631939
2.171086 -1.015187 0.723544 42.829964
2.181091 -1.018480 0.720066 43.027888
2.191096 -1.021939 0.716536 43.225712
2.201101 -1.025565 0.712958 43.423435
2.211106 -1.029358 0.709337 43.621060
2.221111 -1.033318 0.705678 43.818586
2.231116 -1.037447 0.701984 44.016014
2.241121 -1.041744 0.698261 44.213346
2.251126 -1.046208 0.694511 44.410582
2.261131 -1.050840 0.690741 44.607725
2.271136 -1.055639 0.686954 44.804775
2.281141 -1.060603 0.683154 45.001734
2.291146 -1.065733 0.679346 45.198604
2.301151 -1.071026 0.675534 45.395386
2.311156 -1.076483 0.671723 45.592083
2.321161 -1.082100 0.667916 45.788696
2.331166 -1.087877 0.664119 45.985227
2.341171 -1.093812 0.660335 46.181678
2.351176 -1.099903 0.656568 46.378051
2.361181 -1.106148 0.652823 46.574349
2.371186 -1.112545 0.649103 46.770573
2.381191 -1.119092 0.645414 46.966726
2.391196 -1.125786 0.641758 47.162810
2.401201 -1.132626 0.638139 47.358826
2.411206 -1.139607 0.634562 47.554778
2.421211 -1.146728 0.631031 47.750667
2.431216 -1.153987 0.627548 47.946495
2.441221 -1.161379 0.624119 48.142266
2.451226 -1.168903 0.620746 48.337980
2.461231 -1.176555 0.617433 48.533640
2.471236 -1.184332 0.614183 48.729249
2.481241 -1.192231 0.611000 48.924807
2.491246 -1.200248 0.607888 49.120319
2.501251 -1.208381 0.604849 49.315784
2.511256 -1.216626 0.601887 49.511207
2.521261 -1.224980 0.599004 49.706587
2.531266 -1.233439 0.596205 49.901928
2.541271 -1.241999 0.593491 50.097232
2.551276 -1.250657 0.590865 50.292500
2.561281 -1.259409 0.588330 50.487734
2.571286 -1.268252 0.585890 50.682936
2.581291 -1.277182 0.583545 50.878108
2.591296 -1.286194 0.581300 51.073251
2.601301 -1.295286 0.579155 51.268368
2.611306 -1.304452 0.577114 51.463459
2.621311 -1.313690 0.575178 51.658527
2.631316 -1.322995 0.573349 51.853573
2.641321 -1.332363 0.571629 52.048599
2.651326 -1.341790 0.570021 52.243606
2.661331 -1.351272 0.568525 52.438596
2.671336 -1.360804 0.567143 52.633570
2.681341 -1.370384 0.565876 52.828529
2.691346 -1.380006 0.564727 53.023475
2.701351 -1.389667 0.563695 53.218410
2.711356 -1.399361 0.562783 53.413334
2.721361 -1.409086 0.561990 53.608250
2.731366 -1.418836 0.561319 53.803158
2.741371 -1.428607 0.560769 53.998059
2.751376 -1.438396 0.560341 54.192956
2.761381 -1.448198 0.560035 54.387848
2.771386 -1.458008 0.559852 54.582738
2.781391 -1.467822 0.559793 54.777627
2.791396 -1.477636 0.559856 54.972516
2.801401 -1.487446 0.560042 55.167406
2.811406 -1.497247 0.560351 55.362299
2.821411 -1.507035 0.560783 55.557196
2.831416 -1.516806 0.561337 55.752097
2.841421 -1.526555 0.562012 55.947005
2.851426 -1.536279 0.562808 56.141921
2.861431 -1.545973 0.563724 56.336846
2.871436 -1.555632 0.564759 56.531781
2.881441 -1.565253 0.565912 56.726728
2.891446 -1.574831 0.567182 56.921687
2.901451 -1.584363 0.568567 57.116662
2.911456 -1.593843 0.570066 57.311652
2.921461 -1.603269 0.571678 57.506659
2.931466 -1.612635 0.573401 57.701685
2.941471 -1.621938 0.575233 57.896732
2.951476 -1.631173 0.577172 58.091801
2.961481 -1.640338 0.579217 58.286893
2.971486 -1.649427 0.581364 58.482010
2.981491 -1.658437 0.583613 58.677155
2.991496 -1.667364 0.585960 58.872327
3.001501 -1.676204 0.588404 59.067530
3.011506 -1.684954 0.590941 59.262765
3.021511 -1.693609 0.593569 59.458034
3.031516 -1.702166 0.596286 59.653339
3.041521 -1.710622 0.599088 59.848681
3.051526 -1.718973 0.601973 60.044063
3.061531 -1.727214 0.604937 60.239487
3.071536 -1.735344 0.607978 60.434954
3.081541 -1.743358 0.611093 60.630466
3.091546 -1.751254 0.614277 60.826026
3.101551 -1.759027 0.617529 61.021636
3.111556 -1.766675 0.620844 61.217298
3.121561 -1.774195 0.624219 61.413014
3.131566 -1.781584 0.627650 61.608786
3.141571 -1.788838 0.631134 61.804616
3.151576 -1.795955 0.634667 62.000507
3.161581 -1.802933 0.638245 62.196461
3.171586 -1.809768 0.641864 62.392479
3.181591 -1.816458 0.645521 62.588565
3.191596 -1.823000 0.649212 62.784719
3.201601 -1.829393 0.652932 62.980946
3.211606 -1.835633 0.656678 63.177246
3.221611 -1.841720 0.660446 63.373621
3.231616 -1.847650 0.664230 63.570075
3.241621 -1.853423 0.668028 63.766608
3.251626 -1.859035 0.671835 63.963223
3.261631 -1.864487 0.675646 64.159923
3.271636 -1.869775 0.679458 64.356708
3.281641 -1.874900 0.683265 64.553580
3.291646 -1.879860 0.687065 64.750542
3.301651 -1.884654 0.690852 64.947595
3.311656 -1.889281 0.694622 65.144740
3.321661 -1.893740 0.698370 65.341979
3.331666 -1.898032 0.702093 65.539314
3.341671 -1.902156 0.705786 65.736745
3.351676 -1.906111 0.709444 65.934274
3.361681 -1.909900 0.713064 66.131901
3.371686 -1.913520 0.716640 66.329628
3.381691 -1.916974 0.720169 66.527454
3.391696 -1.920263 0.723645 66.725381
3.401701 -1.923386 0.727066 66.923409
3.411706 -1.926347 0.730426 67.121538
3.421711 -1.929145 0.733722 67.319767
3.431716 -1.931784 0.736949 67.518096
3.441721 -1.934266 0.740103 67.716526
3.451726 -1.936592 0.743180 67.915054
3.461731 -1.938765 0.746177 68.113680
3.471736 -1.940789 0.749089 68.312404
3.481741 -1.942667 0.751912 68.511223
3.491746 -1.944402 0.754643 68.710135
3.501751 -1.945998 0.757278 68.909140
3.511756 -1.947459 0.759813 69.108234
3.521761 -1.948790 0.762246 69.307416
3.531766 -1.949994 0.764572 69.506682
3.541771 -1.951078 0.766789 69.706031
3.551776 -1.952046 0.768894 69.905458
3.561781 -1.952903 0.770883 70.104960
3.571786 -1.953656 0.772755 70.304534
3.581791 -1.954310 0.774505 70.504176
3.591796 -1.954871 0.776133 70.703882
3.601801 -1.955346 0.777634 70.903648
3.611806 -1.955742 0.779009 71.103469
3.621811 -1.956065 0.780253 71.303341
3.631816 -1.956322 0.781366 71.503258
3.641821 -1.956521 0.782347 71.703217
3.651826 -1.956669 0.783192 71.903212
3.661831 -1.956773 0.783903 72.103237
3.671836 -1.956840 0.784476 72.303288
3.681841 -1.956879 0.784912 72.503359
3.691846 -1.956898 0.785210 72.703445
3.701851 -1.956903 0.785369 72.903539
3.711856 -1.956904 0.785390 73.103638
3.721861 -1.956907 0.785271 73.303734
3.731866 -1.956921 0.785014 73.503823
3.741871 -1.956953 0.784619 73.703899
3.751876 -1.957011 0.784086 73.903956
3.761881 -1.957104 0.783415 74.103990
3.771886 -1.957238 0.782609 74.303994
3.781891 -1.957421 0.781669 74.503964
3.791896 -1.957660 0.780594 74.703894
3.801901 -1.957963 0.779388 74.903780
3.811906 -1.958336 0.778052 75.103617
3.821911 -1.958788 0.776588 75.303399
3.831916 -1.959323 0.774997 75.503123
3.841921 -1.959949 0.773282 75.702784
3.851926 -1.960672 0.771446 75.902379
3.861931 -1.961498 0.769491 76.101903
3.871936 -1.962433 0.767420 76.301352
3.881941 -1.963482 0.765236 76.500724
3.891946 -1.964650 0.762941 76.700015
3.901951 -1.965943 0.760540 76.899222
3.911956 -1.967365 0.758034 77.098342
3.921961 -1.968921 0.755428 77.297373
3.931966 -1.970615 0.752725 77.496313
3.941971 -1.972450 0.749929 77.695160
3.951976 -1.974431 0.747042 77.893911
3.961981 -1.976560 0.744071 78.092566
3.971986 -1.978841 0.741017 78.291124
3.981991 -1.981277 0.737885 78.489582
3.991996 -1.983869 0.734679 78.687941
4.002001 -1.986621 0.731403 78.886200
4.012006 -1.989533 0.728061 79.084358
4.022011 -1.992609 0.724658 79.282415
4.032016 -1.995848 0.721197 79.480372
4.042021 -1.999254 0.717683 79.678228
4.052026 -2.002825 0.714120 79.875984
4.062031 -2.006564 0.710513 80.073641
4.072036 -2.010470 0.706866 80.271198
4.082041 -2.014545 0.703183 80.468658
4.092046 -2.018787 0.699469 80.666021
4.102051 -2.023197 0.695727 80.863288
4.112056 -2.027775 0.691963 81.060461
4.122061 -2.032520 0.688181 81.257541
4.132066 -2.037431 0.684384 81.454529
4.142071 -2.042507 0.680579 81.651428
4.152076 -2.047748 0.676768 81.848238
4.162081 -2.053151 0.672956 82.044963
4.172086 -2.058717 0.669147 82.241602
4.182091 -2.064442 0.665346 82.438160
4.192096 -2.070326 0.661557 82.634636
4.202101 -2.076367 0.657785 82.831035
4.212106 -2.082563 0.654032 83.027357
4.222111 -2.088911 0.650304 83.223605
4.232116 -2.095409 0.646604 83.419780
4.242121 -2.102056 0.642937 83.615886
4.252126 -2.108849 0.639305 83.811924
4.262131 -2.115785 0.635715 84.007896
4.272136 -2.122861 0.632168 84.203805
4.282141 -2.130075 0.628669 84.399653
4.292146 -2.137425 0.625222 84.595442
4.302151 -2.144906 0.621831 84.791174
4.312156 -2.152517 0.618498 84.986852
4.322161 -2.160254 0.615227 85.182477
4.332166 -2.168114 0.612023 85.378051
4.342171 -2.176093 0.608887 85.573578
4.352176 -2.184189 0.605824 85.769058
4.362181 -2.192398 0.602837 85.964494
4.372186 -2.200717 0.599928 86.159888
4.382191 -2.209142 0.597101 86.355242
4.392196 -2.217670 0.594359 86.550557
4.402201 -2.226297 0.591705 86.745836
4.412206 -2.235019 0.589140 86.941081
4.422211 -2.243833 0.586669 87.136293
4.432216 -2.252735 0.584293 87.331475
4.442221 -2.261721 0.582015 87.526627
4.452226 -2.270787 0.579838 87.721752
4.462231 -2.279930 0.577763 87.916852
4.472236 -2.289145 0.575792 88.111927
4.482241 -2.298429 0.573929 88.306980
4.492246 -2.307777 0.572174 88.502012
4.502251 -2.317185 0.570529 88.697025
4.512256 -2.326650 0.568996 88.892020
4.522261 -2.336167 0.567577 89.086999
4.532266 -2.345732 0.566273 89.281963
4.542271 -2.355340 0.565086 89.476913
4.552276 -2.364989 0.564016 89.671852
4.562281 -2.374673 0.563065 89.866779
4.572286 -2.384388 0.562234 90.061697
4.582291 -2.394131 0.561523 90.256607
4.592296 -2.403896 0.560933 90.451511
4.602301 -2.413679 0.560466 90.646409
4.612306 -2.423477 0.560120 90.841303
4.622311 -2.433285 0.559898 91.036193
4.632316 -2.443098 0.559798 91.231083
4.642321 -2.452913 0.559822 91.425971
4.652326 -2.462724 0.559969 91.620861
4.662331 -2.472529 0.560238 91.815753
4.672336 -2.482322 0.560630 92.010648
4.682341 -2.492099 0.561144 92.205548
4.692346 -2.501855 0.561780 92.400454
4.702351 -2.511588 0.562537 92.595367
4.712356 -2.521292 0.563414 92.790288
4.722361 -2.530963 0.564411 92.985220
4.732366 -2.540597 0.565526 93.180163
4.742371 -2.550189 0.566758 93.375118
4.752376 -2.559736 0.568106 93.570087
4.762381 -2.569234 0.569569 93.765072
4.772386 -2.578677 0.571144 93.960074
4.782391 -2.588063 0.572831 94.155094
4.792396 -2.597387 0.574628 94.350134
4.802401 -2.606645 0.576533 94.545195
4.812406 -2.615832 0.578544 94.740280
4.822411 -2.624946 0.580658 94.935389
4.832416 -2.633982 0.582874 95.130524
4.842421 -2.642937 0.585190 95.325687
4.852426 -2.651805 0.587603 95.520880
4.862431 -2.660585 0.590110 95.716105
4.872436 -2.669271 0.592709 95.911363
4.882441 -2.677860 0.595397 96.106656
4.892446 -2.686349 0.598172 96.301986
4.902451 -2.694734 0.601030 96.497354
4.912456 -2.703012 0.603969 96.692764
4.922461 -2.711178 0.606986 96.888217
4.932466 -2.719230 0.610077 97.083714
4.942471 -2.727164 0.613240 97.279259
4.952476 -2.734977 0.616470 97.474853
4.962481 -2.742666 0.619765 97.670497
4.972486 -2.750228 0.623120 97.866196
4.982491 -2.757660 0.626534 98.061949
4.992496 -2.764958 0.630001 98.257760
5.002501 -2.772119 0.633518 98.453631
5.012506 -2.779142 0.637082 98.649564
5.022511 -2.786024 0.640689 98.845562
5.032516 -2.792761 0.644334 99.041625
5.042521 -2.799351 0.648015 99.237757
5.052526 -2.805793 0.651726 99.433960
5.062531 -2.812083 0.655464 99.630236
5.072536 -2.818219 0.659225 99.826587
5.082541 -2.824200 0.663004 100.023015
5.092546 -2.830024 0.666798 100.219522
5.102551 -2.835689 0.670602 100.416111
5.112556 -2.841192 0.674413 100.612783
5.122561 -2.846534 0.678225 100.809540
